#Total IC and Syncrotron Flux
#Frequency[Hz] 		 IC-Flux [erg/s/cm^2/Hz]		 Synchrotronflux		Sync from Dust		 IC from optical
2.417989e+05		1.323383e-30		1.019768e-19		2.639484e-30		0.000000e+00		0.000000e+00
2.901587e+05		1.327404e-30		1.020402e-19		4.561029e-30		0.000000e+00		0.000000e+00
3.481905e+05		1.331404e-30		1.013714e-19		7.881458e-30		0.000000e+00		0.000000e+00
4.178286e+05		1.335350e-30		9.995600e-20		1.361916e-29		0.000000e+00		0.000000e+00
5.013943e+05		1.339160e-30		9.779471e-20		2.353391e-29		0.000000e+00		0.000000e+00
6.016732e+05		1.343050e-30		9.501753e-20		4.066659e-29		0.000000e+00		0.000000e+00
7.220078e+05		1.346886e-30		9.168737e-20		7.027186e-29		0.000000e+00		0.000000e+00
8.664093e+05		1.350737e-30		8.799041e-20		1.214298e-28		0.000000e+00		0.000000e+00
1.039691e+06		1.354499e-30		8.410493e-20		2.098306e-28		0.000000e+00		0.000000e+00
1.247629e+06		1.358123e-30		8.006407e-20		3.625873e-28		0.000000e+00		0.000000e+00
1.497155e+06		1.361789e-30		7.606860e-20		6.265509e-28		0.000000e+00		0.000000e+00
1.796586e+06		1.365412e-30		7.219783e-20		1.082680e-27		0.000000e+00		0.000000e+00
2.155904e+06		1.368993e-30		6.849186e-20		1.870871e-27		0.000000e+00		0.000000e+00
2.587084e+06		1.372527e-30		6.497002e-20		3.232864e-27		0.000000e+00		0.000000e+00
3.104501e+06		1.376010e-30		6.162488e-20		5.586388e-27		0.000000e+00		0.000000e+00
3.725402e+06		1.379439e-30		5.845100e-20		9.653277e-27		0.000000e+00		0.000000e+00
4.470482e+06		1.382809e-30		5.543986e-20		1.668086e-26		0.000000e+00		0.000000e+00
5.364578e+06		1.386111e-30		5.258394e-20		2.882452e-26		0.000000e+00		0.000000e+00
6.437494e+06		1.389338e-30		4.987461e-20		4.980876e-26		0.000000e+00		0.000000e+00
7.724993e+06		1.392483e-30		4.730531e-20		8.606950e-26		0.000000e+00		0.000000e+00
9.269991e+06		1.395533e-30		4.486754e-20		1.487280e-25		0.000000e+00		0.000000e+00
1.112399e+07		1.398483e-30		4.255851e-20		2.570019e-25		0.000000e+00		0.000000e+00
1.334879e+07		1.401346e-30		4.036527e-20		4.440991e-25		0.000000e+00		0.000000e+00
1.601854e+07		1.404115e-30		3.828269e-20		7.674027e-25		0.000000e+00		0.000000e+00
1.922225e+07		1.406767e-30		3.631263e-20		1.326071e-24		0.000000e+00		0.000000e+00
2.306670e+07		1.409285e-30		3.443975e-20		2.291448e-24		0.000000e+00		0.000000e+00
2.768005e+07		1.411636e-30		3.266651e-20		3.959617e-24		0.000000e+00		0.000000e+00
3.321605e+07		1.413785e-30		3.098206e-20		6.842209e-24		0.000000e+00		0.000000e+00
3.985927e+07		1.415700e-30		2.938337e-20		1.182332e-23		0.000000e+00		0.000000e+00
4.783112e+07		1.417333e-30		2.786974e-20		2.043065e-23		0.000000e+00		0.000000e+00
5.739734e+07		1.418633e-30		2.643121e-20		3.530407e-23		0.000000e+00		0.000000e+00
6.887681e+07		1.419551e-30		2.506801e-20		6.100526e-23		0.000000e+00		0.000000e+00
8.265217e+07		1.420020e-30		2.377496e-20		1.054167e-22		0.000000e+00		0.000000e+00
9.918261e+07		1.419969e-30		2.254795e-20		1.821593e-22		0.000000e+00		0.000000e+00
1.190191e+08		1.419323e-30		2.138455e-20		3.147697e-22		0.000000e+00		0.000000e+00
1.428230e+08		1.417994e-30		2.028051e-20		5.439187e-22		0.000000e+00		0.000000e+00
1.713875e+08		1.415891e-30		1.923327e-20		9.398845e-22		0.000000e+00		0.000000e+00
2.056651e+08		1.412904e-30		1.823988e-20		1.624106e-21		0.000000e+00		0.000000e+00
2.467981e+08		1.408924e-30		1.729726e-20		2.806425e-21		0.000000e+00		0.000000e+00
2.961577e+08		1.403827e-30		1.640322e-20		4.849441e-21		0.000000e+00		0.000000e+00
3.553892e+08		1.397478e-30		1.555481e-20		8.379707e-21		0.000000e+00		0.000000e+00
4.264671e+08		1.389745e-30		1.475003e-20		1.447987e-20		0.000000e+00		0.000000e+00
5.117605e+08		1.380476e-30		1.398634e-20		2.502066e-20		0.000000e+00		0.000000e+00
6.141126e+08		1.369552e-30		1.326181e-20		4.323456e-20		0.000000e+00		0.000000e+00
7.369351e+08		1.356893e-30		1.257431e-20		7.470695e-20		0.000000e+00		0.000000e+00
8.843221e+08		1.342472e-30		1.192193e-20		1.290887e-19		0.000000e+00		0.000000e+00
1.061187e+09		1.326318e-30		1.130285e-20		2.230551e-19		0.000000e+00		0.000000e+00
1.273424e+09		1.308496e-30		1.071532e-20		3.854181e-19		0.000000e+00		0.000000e+00
1.528109e+09		1.289120e-30		1.015770e-20		6.659587e-19		0.000000e+00		0.000000e+00
1.833730e+09		1.268327e-30		9.628463e-21		1.150686e-18		0.000000e+00		0.000000e+00
2.200476e+09		1.246279e-30		9.128580e-21		1.988197e-18		0.000000e+00		0.000000e+00
2.640572e+09		1.223139e-30		8.653184e-21		3.435214e-18		0.000000e+00		0.000000e+00
3.168686e+09		1.199065e-30		8.200681e-21		5.935241e-18		0.000000e+00		0.000000e+00
3.802423e+09		1.174206e-30		7.771024e-21		1.025442e-17		0.000000e+00		0.000000e+00
4.562908e+09		1.148710e-30		7.364217e-21		1.771616e-17		0.000000e+00		0.000000e+00
5.475489e+09		1.122707e-30		6.976596e-21		3.060631e-17		0.000000e+00		0.000000e+00
6.570587e+09		1.096315e-30		6.608909e-21		5.287275e-17		0.000000e+00		0.000000e+00
7.884705e+09		1.069648e-30		6.259455e-21		9.133312e-17		0.000000e+00		0.000000e+00
9.461646e+09		1.042804e-30		5.927354e-21		1.577594e-16		0.000000e+00		0.000000e+00
1.135397e+10		1.015867e-30		5.611846e-21		2.724750e-16		0.000000e+00		0.000000e+00
1.362477e+10		9.889186e-31		5.311886e-21		4.705607e-16		0.000000e+00		0.000000e+00
1.634972e+10		9.620341e-31		5.026391e-21		8.125567e-16		0.000000e+00		0.000000e+00
1.961967e+10		9.352866e-31		4.754911e-21		1.402912e-15		0.000000e+00		0.000000e+00
2.354360e+10		9.087164e-31		4.496994e-21		2.421774e-15		0.000000e+00		0.000000e+00
2.825232e+10		8.823779e-31		4.250930e-21		4.179732e-15		0.000000e+00		0.000000e+00
3.390279e+10		8.563275e-31		4.017262e-21		7.212027e-15		0.000000e+00		0.000000e+00
4.068334e+10		8.305993e-31		3.794716e-21		1.244053e-14		0.000000e+00		0.000000e+00
4.882001e+10		8.052427e-31		3.582750e-21		2.145197e-14		0.000000e+00		0.000000e+00
5.858402e+10		7.802790e-31		3.380632e-21		3.697530e-14		0.000000e+00		0.000000e+00
7.030082e+10		7.557358e-31		3.186979e-21		6.369937e-14		0.000000e+00		0.000000e+00
8.436098e+10		7.316311e-31		3.004204e-21		1.096712e-13		0.000000e+00		0.000000e+00
1.012332e+11		7.080869e-31		2.827812e-21		1.886821e-13		0.000000e+00		0.000000e+00
1.214798e+11		6.849422e-31		2.660452e-21		3.243275e-13		0.000000e+00		0.000000e+00
1.457758e+11		6.622929e-31		2.499835e-21		5.568953e-13		0.000000e+00		0.000000e+00
1.749309e+11		6.401548e-31		2.346970e-21		9.550037e-13		0.000000e+00		0.000000e+00
2.099171e+11		6.185379e-31		2.200703e-21		1.635171e-12		0.000000e+00		0.000000e+00
2.519005e+11		5.974390e-31		2.060474e-21		2.794530e-12		0.000000e+00		0.000000e+00
3.022807e+11		5.768721e-31		1.926171e-21		4.765103e-12		0.000000e+00		0.000000e+00
3.627368e+11		5.568398e-31		1.797506e-21		8.103031e-12		0.000000e+00		0.000000e+00
4.352841e+11		5.373429e-31		1.674154e-21		1.373354e-11		0.000000e+00		0.000000e+00
5.223410e+11		5.183899e-31		1.555911e-21		2.318297e-11		0.000000e+00		0.000000e+00
6.268092e+11		4.999714e-31		1.442470e-21		3.894289e-11		0.000000e+00		0.000000e+00
7.521710e+11		4.821003e-31		1.333690e-21		6.502677e-11		0.000000e+00		0.000000e+00
9.026052e+11		4.647717e-31		1.229466e-21		1.077908e-10		0.000000e+00		0.000000e+00
1.083126e+12		4.479897e-31		1.129709e-21		1.770826e-10		0.000000e+00		0.000000e+00
1.299751e+12		4.317469e-31		1.034377e-21		2.877213e-10		0.000000e+00		0.000000e+00
1.559702e+12		4.161068e-31		9.434812e-22		4.611425e-10		0.000000e+00		0.000000e+00
1.871642e+12		4.009570e-31		8.570874e-22		7.266583e-10		0.000000e+00		0.000000e+00
2.245971e+12		3.863485e-31		7.753179e-22		1.121075e-09		0.000000e+00		0.000000e+00
2.695165e+12		3.722936e-31		6.983539e-22		1.684322e-09		0.000000e+00		0.000000e+00
3.234198e+12		3.587829e-31		6.264294e-22		2.447561e-09		0.000000e+00		0.000000e+00
3.881037e+12		3.458282e-31		5.598150e-22		3.410139e-09		0.000000e+00		0.000000e+00
4.657245e+12		3.334293e-31		4.988042e-22		4.505307e-09		0.000000e+00		0.000000e+00
5.588693e+12		3.215945e-31		4.437023e-22		5.565694e-09		0.000000e+00		0.000000e+00
6.706432e+12		3.103274e-31		3.948024e-22		6.318336e-09		0.000000e+00		0.000000e+00
8.047719e+12		2.996304e-31		3.522607e-22		6.452608e-09		0.000000e+00		0.000000e+00
9.657262e+12		2.895165e-31		3.160737e-22		5.778647e-09		0.000000e+00		0.000000e+00
1.158871e+13		2.799873e-31		2.860209e-22		4.403303e-09		0.000000e+00		0.000000e+00
1.390646e+13		2.711079e-31		2.616202e-22		2.755952e-09		0.000000e+00		0.000000e+00
1.668775e+13		2.627704e-31		2.421168e-22		1.359521e-09		0.000000e+00		0.000000e+00
2.002530e+13		2.550283e-31		2.265212e-22		5.035199e-10		0.000000e+00		0.000000e+00
2.403036e+13		2.478874e-31		2.136866e-22		1.321582e-10		0.000000e+00		0.000000e+00
2.883643e+13		2.413343e-31		2.025980e-22		2.294327e-11		0.000000e+00		0.000000e+00
3.460372e+13		2.353635e-31		1.920635e-22		2.425411e-12		0.000000e+00		0.000000e+00
4.152446e+13		2.299504e-31		1.812734e-22		1.413829e-13		0.000000e+00		0.000000e+00
4.982935e+13		2.250643e-31		1.701228e-22		4.034460e-15		0.000000e+00		0.000000e+00
5.979522e+13		2.206576e-31		1.583868e-22		4.885475e-17		0.000000e+00		0.000000e+00
7.175427e+13		2.166649e-31		1.461896e-22		2.114986e-19		0.000000e+00		0.000000e+00
8.610512e+13		2.130013e-31		1.337466e-22		2.664669e-22		0.000000e+00		0.000000e+00
1.033261e+14		2.095537e-31		1.213114e-22		7.633105e-26		0.000000e+00		0.000000e+00
1.239914e+14		2.061875e-31		1.091184e-22		3.696799e-30		0.000000e+00		0.000000e+00
1.487896e+14		2.027394e-31		9.736812e-23		2.121438e-35		0.000000e+00		0.000000e+00
1.785476e+14		1.990368e-31		8.622557e-23		9.415658e-42		0.000000e+00		0.000000e+00
2.142571e+14		1.949039e-31		7.581127e-23		1.937181e-49		0.000000e+00		0.000000e+00
2.571085e+14		1.901942e-31		6.620783e-23		9.995591e-59		0.000000e+00		0.000000e+00
3.046362e+14		1.851354e-31		5.803325e-23		4.388435e-69		0.000000e+00		3.119586e-10
3.223402e+14		1.833475e-31		5.547355e-23		5.922698e-73		0.000000e+00		1.123051e-09
3.480294e+14		1.843953e-31		5.214208e-23		1.406453e-78		0.000000e+00		3.743503e-11
4.063330e+14		1.753762e-31		4.587277e-23		2.238174e-91		0.000000e+00		1.746968e-10
4.093011e+14		1.751106e-31		4.559512e-23		4.980981e-92		0.000000e+00		1.746968e-10
4.027575e+14		1.756975e-31		4.621222e-23		1.367401e-90		0.000000e+00		1.871751e-10
4.458874e+14		1.719291e-31		4.240172e-23		4.427069e-100		0.000000e+00		1.996534e-09
4.566180e+14		1.737938e-31		4.154874e-23		1.916192e-102		0.000000e+00		2.620452e-09
4.567918e+14		1.737784e-31		4.153509e-23		1.754427e-102		0.000000e+00		1.310226e-09
4.734936e+14		1.696410e-31		4.026762e-23		3.657863e-106		0.000000e+00		3.868286e-10
5.101982e+14		1.667199e-31		3.774206e-23		2.927509e-114		0.000000e+00		1.996534e-10
6.016306e+14		1.602099e-31		3.262487e-23		1.821999e-134		0.000000e+00		4.866553e-09
6.167300e+14		1.568780e-31		3.190403e-23		8.307234e-138		0.000000e+00		2.745235e-10
6.397621e+14		1.577635e-31		3.086653e-23		6.623378e-143		0.000000e+00		2.121318e-10
6.436076e+14		1.575249e-31		3.070019e-23		9.323968e-144		0.000000e+00		4.991336e-11
6.705266e+14		1.558956e-31		2.958235e-23		1.017543e-149		0.000000e+00		7.487005e-11
6.871247e+14		1.549235e-31		2.892900e-23		2.137907e-153		0.000000e+00		7.487005e-11
7.092323e+14		1.536680e-31		2.810427e-23		2.692223e-158		0.000000e+00		6.239170e-11
7.361388e+14		1.521963e-31		2.716138e-23		2.913309e-164		0.000000e+00		1.247834e-10
7.658513e+14		1.506397e-31		2.618583e-23		7.478312e-171		0.000000e+00		8.110920e-10
8.042722e+14		1.487245e-31		2.502633e-23		2.227131e-179		0.000000e+00		4.117852e-09
8.881425e+14		1.448929e-31		2.280736e-23		5.279469e-198		0.000000e+00		2.495669e-10
1.071070e+15		1.378693e-31		1.908866e-23		1.120126e-238		0.000000e+00		3.743503e-10
1.571651e+15		1.244741e-31		1.312466e-23		0.000000e+00		0.000000e+00		1.871751e-09
1.823555e+15		1.196375e-31		1.131362e-23		0.000000e+00		0.000000e+00		1.372617e-10
1.828003e+15		1.195598e-31		1.128601e-23		0.000000e+00		0.000000e+00		1.497401e-09
1.934769e+15		1.177646e-31		1.065984e-23		0.000000e+00		9.616850e-37		1.746968e-09
1.934769e+15		1.177646e-31		1.065984e-23		0.000000e+00		9.616850e-37		0.000000e+00
2.321723e+15		1.121814e-31		8.861178e-24		0.000000e+00		1.151313e-36		0.000000e+00
2.786068e+15		1.068643e-31		7.350896e-24		0.000000e+00		1.377817e-36		0.000000e+00
3.343281e+15		1.017980e-31		6.086980e-24		0.000000e+00		1.648173e-36		0.000000e+00
4.011938e+15		9.696573e-32		5.031596e-24		0.000000e+00		1.970603e-36		0.000000e+00
4.814325e+15		9.234891e-32		4.153207e-24		0.000000e+00		2.354772e-36		0.000000e+00
5.777190e+15		8.792888e-32		3.423666e-24		0.000000e+00		2.812005e-36		0.000000e+00
6.932628e+15		8.368672e-32		2.818956e-24		0.000000e+00		3.355522e-36		0.000000e+00
8.319154e+15		7.960468e-32		2.318609e-24		0.000000e+00		4.000692e-36		0.000000e+00
9.982985e+15		7.566831e-32		1.905317e-24		0.000000e+00		4.765291e-36		0.000000e+00
1.197958e+16		7.186763e-32		1.564306e-24		0.000000e+00		5.669768e-36		0.000000e+00
1.437550e+16		6.821066e-32		1.283396e-24		0.000000e+00		6.737489e-36		0.000000e+00
1.725060e+16		6.469080e-32		1.052217e-24		0.000000e+00		7.994955e-36		0.000000e+00
2.070072e+16		6.129499e-32		8.621793e-25		0.000000e+00		9.471956e-36		0.000000e+00
2.484086e+16		5.805064e-32		7.060814e-25		0.000000e+00		1.120164e-35		0.000000e+00
2.980903e+16		5.493819e-32		5.779651e-25		0.000000e+00		1.322047e-35		0.000000e+00
3.577084e+16		5.200731e-32		4.728951e-25		0.000000e+00		1.556799e-35		0.000000e+00
4.292501e+16		4.922750e-32		3.867863e-25		0.000000e+00		1.828641e-35		0.000000e+00
5.151001e+16		4.659193e-32		3.162422e-25		0.000000e+00		2.142002e-35		0.000000e+00
6.181201e+16		4.409276e-32		2.584954e-25		0.000000e+00		2.501429e-35		0.000000e+00
7.417441e+16		4.172252e-32		2.112276e-25		0.000000e+00		2.911491e-35		0.000000e+00
8.900929e+16		3.947323e-32		1.725739e-25		0.000000e+00		3.376675e-35		0.000000e+00
1.068112e+17		3.733860e-32		1.409591e-25		0.000000e+00		3.901305e-35		0.000000e+00
1.281734e+17		3.531216e-32		1.151136e-25		0.000000e+00		4.489511e-35		0.000000e+00
1.538081e+17		3.338818e-32		9.399141e-26		0.000000e+00		5.145287e-35		0.000000e+00
1.845697e+17		3.156160e-32		7.673369e-26		0.000000e+00		5.872660e-35		0.000000e+00
2.214836e+17		2.981425e-32		6.263614e-26		0.000000e+00		6.675909e-35		0.000000e+00
2.657803e+17		2.816981e-32		5.112172e-26		0.000000e+00		7.559582e-35		0.000000e+00
3.189364e+17		2.660931e-32		4.171882e-26		0.000000e+00		8.527594e-35		0.000000e+00
3.827237e+17		2.512884e-32		3.404210e-26		0.000000e+00		9.579666e-35		0.000000e+00
4.592684e+17		2.372476e-32		2.777498e-26		0.000000e+00		1.070703e-34		0.000000e+00
5.511221e+17		2.239351e-32		2.265982e-26		0.000000e+00		1.184543e-34		0.000000e+00
6.613465e+17		2.113178e-32		1.848465e-26		0.000000e+00		1.209726e-34		0.000000e+00
7.936158e+17		1.993659e-32		1.507730e-26		0.000000e+00		1.147298e-34		0.000000e+00
9.523390e+17		1.880706e-32		1.229649e-26		0.000000e+00		1.088184e-34		0.000000e+00
1.142807e+18		1.773380e-32		1.002755e-26		0.000000e+00		1.032387e-34		0.000000e+00
1.371368e+18		1.672028e-32		8.176237e-27		0.000000e+00		9.785106e-35		0.000000e+00
1.645642e+18		1.576704e-32		6.665728e-27		0.000000e+00		9.285609e-35		0.000000e+00
1.974770e+18		1.486043e-32		5.433184e-27		0.000000e+00		8.803008e-35		0.000000e+00
2.369724e+18		1.400363e-32		4.427636e-27		0.000000e+00		8.347392e-35		0.000000e+00
2.843669e+18		1.319423e-32		3.607242e-27		0.000000e+00		7.923487e-35		0.000000e+00
3.412403e+18		1.242538e-32		2.937869e-27		0.000000e+00		7.521090e-35		0.000000e+00
4.094883e+18		1.170773e-32		2.391803e-27		0.000000e+00		7.130828e-35		0.000000e+00
4.913860e+18		1.102624e-32		1.946167e-27		0.000000e+00		6.757688e-35		0.000000e+00
5.896632e+18		1.037943e-32		1.582634e-27		0.000000e+00		6.416174e-35		0.000000e+00
7.075958e+18		9.772695e-33		1.286045e-27		0.000000e+00		6.080385e-35		0.000000e+00
8.491150e+18		9.200302e-33		1.044086e-27		0.000000e+00		5.769542e-35		0.000000e+00
1.018938e+19		8.660544e-33		8.467203e-28		0.000000e+00		5.468120e-35		0.000000e+00
1.222726e+19		8.151299e-33		6.857660e-28		0.000000e+00		5.188871e-35		0.000000e+00
1.467271e+19		7.671031e-33		5.545470e-28		0.000000e+00		4.911198e-35		0.000000e+00
1.760725e+19		7.218151e-33		4.476176e-28		0.000000e+00		4.665499e-35		0.000000e+00
2.112870e+19		6.791115e-33		3.605696e-28		0.000000e+00		4.424075e-35		0.000000e+00
2.535444e+19		6.388466e-33		2.897933e-28		0.000000e+00		4.197886e-35		0.000000e+00
3.042532e+19		6.009502e-33		2.323454e-28		0.000000e+00		3.978636e-35		0.000000e+00
3.651039e+19		5.650757e-33		1.858191e-28		0.000000e+00		3.775353e-35		0.000000e+00
4.381247e+19		5.313102e-33		1.482374e-28		0.000000e+00		3.578946e-35		0.000000e+00
5.257496e+19		4.994645e-33		1.179758e-28		0.000000e+00		3.394258e-35		0.000000e+00
6.308995e+19		4.694882e-33		9.369543e-29		0.000000e+00		3.217663e-35		0.000000e+00
7.570794e+19		4.410668e-33		7.428315e-29		0.000000e+00		3.050203e-35		0.000000e+00
9.084953e+19		4.143038e-33		5.881194e-29		0.000000e+00		2.894254e-35		0.000000e+00
1.090194e+20		3.890215e-33		4.651833e-29		0.000000e+00		2.742952e-35		0.000000e+00
1.308233e+20		3.651965e-33		3.676878e-29		0.000000e+00		2.602542e-35		0.000000e+00
1.569880e+20		3.425456e-33		2.904827e-29		0.000000e+00		2.467669e-35		0.000000e+00
1.883856e+20		3.211709e-33		2.293930e-29		0.000000e+00		2.340015e-35		0.000000e+00
2.260627e+20		3.009268e-33		1.810686e-29		0.000000e+00		2.218297e-35		0.000000e+00
2.712753e+20		2.817373e-33		1.428502e-29		0.000000e+00		2.101912e-35		0.000000e+00
3.255303e+20		2.635245e-33		1.126279e-29		0.000000e+00		1.994468e-35		0.000000e+00
3.906364e+20		2.462823e-33		8.873431e-30		0.000000e+00		1.889636e-35		0.000000e+00
4.687636e+20		2.298231e-33		6.984833e-30		0.000000e+00		1.793509e-35		0.000000e+00
5.625164e+20		2.141467e-33		5.492006e-30		0.000000e+00		1.697194e-35		0.000000e+00
6.750196e+20		1.991987e-33		4.313030e-30		0.000000e+00		1.607993e-35		0.000000e+00
8.100236e+20		1.849306e-33		3.381858e-30		0.000000e+00		1.525635e-35		0.000000e+00
9.720283e+20		1.712998e-33		2.647153e-30		0.000000e+00		1.445278e-35		0.000000e+00
1.166434e+21		1.582747e-33		2.067312e-30		0.000000e+00		1.371040e-35		0.000000e+00
1.399721e+21		1.458305e-33		1.610440e-30		0.000000e+00		1.297437e-35		0.000000e+00
1.679665e+21		1.339542e-33		1.250804e-30		0.000000e+00		1.229350e-35		0.000000e+00
2.015598e+21		1.226496e-33		9.681024e-31		0.000000e+00		1.164550e-35		0.000000e+00
2.418717e+21		1.119413e-33		7.462513e-31		0.000000e+00		1.102823e-35		0.000000e+00
2.902461e+21		1.018324e-33		5.725271e-31		0.000000e+00		1.044806e-35		0.000000e+00
3.482953e+21		9.240169e-34		4.368282e-31		0.000000e+00		9.889527e-36		0.000000e+00
4.179544e+21		8.370500e-34		3.311884e-31		0.000000e+00		9.366726e-36		0.000000e+00
5.015452e+21		7.581351e-34		2.492710e-31		0.000000e+00		8.868101e-36		0.000000e+00
6.018543e+21		6.878378e-34		1.860513e-31		0.000000e+00		8.391427e-36		0.000000e+00
7.222251e+21		6.266278e-34		1.375411e-31		0.000000e+00		7.939585e-36		0.000000e+00
8.666702e+21		5.745054e-34		1.005528e-31		0.000000e+00		7.511756e-36		0.000000e+00
1.040004e+22		5.307730e-34		7.259545e-32		0.000000e+00		7.099911e-36		0.000000e+00
1.248005e+22		4.942527e-34		5.167408e-32		0.000000e+00		6.714452e-36		0.000000e+00
1.497606e+22		4.631628e-34		3.619818e-32		0.000000e+00		6.346890e-36		0.000000e+00
1.797127e+22		4.356551e-34		2.490263e-32		0.000000e+00		5.998319e-36		0.000000e+00
2.156553e+22		4.100436e-34		1.678678e-32		0.000000e+00		5.665933e-36		0.000000e+00
2.587863e+22		3.851854e-34		1.106018e-32		0.000000e+00		5.347496e-36		0.000000e+00
3.105436e+22		3.604787e-34		7.103158e-33		0.000000e+00		5.047817e-36		0.000000e+00
3.726523e+22		3.267797e-34		4.432671e-33		0.000000e+00		4.763053e-36		0.000000e+00
4.471828e+22		3.111007e-34		2.679179e-33		0.000000e+00		4.490533e-36		0.000000e+00
5.366193e+22		2.867013e-34		1.562525e-33		0.000000e+00		4.231264e-36		0.000000e+00
6.439432e+22		2.627957e-34		8.756314e-34		0.000000e+00		3.985466e-36		0.000000e+00
7.727318e+22		2.395832e-34		4.691184e-34		0.000000e+00		3.749709e-36		0.000000e+00
